5 0.030000 -1.000000e-01 -3.203337e-03 -1.184032e+01 
5 0.030000 -9.900000e-02 -3.542973e-03 -1.172506e+01 
5 0.030000 -9.800000e-02 -3.913857e-03 -1.160970e+01 
5 0.030000 -9.700000e-02 -4.318302e-03 -1.149425e+01 
5 0.030000 -9.600000e-02 -4.758733e-03 -1.137870e+01 
5 0.030000 -9.500000e-02 -5.237677e-03 -1.126307e+01 
5 0.030000 -9.400000e-02 -5.757769e-03 -1.114734e+01 
5 0.030000 -9.300000e-02 -6.321744e-03 -1.103153e+01 
5 0.030000 -9.200000e-02 -6.932431e-03 -1.091562e+01 
5 0.030000 -9.100000e-02 -7.592752e-03 -1.079963e+01 
5 0.030000 -9.000000e-02 -8.305708e-03 -1.068355e+01 
5 0.030000 -8.900000e-02 -9.074376e-03 -1.056738e+01 
5 0.030000 -8.800000e-02 -9.901895e-03 -1.045113e+01 
5 0.030000 -8.700000e-02 -1.079146e-02 -1.033480e+01 
5 0.030000 -8.600000e-02 -1.174629e-02 -1.021838e+01 
5 0.030000 -8.500000e-02 -1.276964e-02 -1.010188e+01 
5 0.030000 -8.400000e-02 -1.386478e-02 -9.985301e+00 
5 0.030000 -8.300000e-02 -1.503495e-02 -9.868640e+00 
5 0.030000 -8.200000e-02 -1.628337e-02 -9.751900e+00 
5 0.030000 -8.100000e-02 -1.761320e-02 -9.635081e+00 
5 0.030000 -8.000000e-02 -1.902752e-02 -9.518185e+00 
5 0.030000 -7.900000e-02 -2.052933e-02 -9.401212e+00 
5 0.030000 -7.800000e-02 -2.212146e-02 -9.284164e+00 
5 0.030000 -7.700000e-02 -2.380662e-02 -9.167041e+00 
5 0.030000 -7.600000e-02 -2.558731e-02 -9.049845e+00 
5 0.030000 -7.500000e-02 -2.746583e-02 -8.932576e+00 
5 0.030000 -7.400000e-02 -2.944421e-02 -8.815235e+00 
5 0.030000 -7.300000e-02 -3.152419e-02 -8.697824e+00 
5 0.030000 -7.200000e-02 -3.370721e-02 -8.580342e+00 
5 0.030000 -7.100000e-02 -3.599433e-02 -8.462792e+00 
5 0.030000 -7.000000e-02 -3.838624e-02 -8.345174e+00 
5 0.030000 -6.900000e-02 -4.088318e-02 -8.227489e+00 
5 0.030000 -6.800000e-02 -4.348493e-02 -8.109737e+00 
5 0.030000 -6.700000e-02 -4.619078e-02 -7.991921e+00 
5 0.030000 -6.600000e-02 -4.899946e-02 -7.874041e+00 
5 0.030000 -6.500000e-02 -5.190914e-02 -7.756097e+00 
5 0.030000 -6.400000e-02 -5.491739e-02 -7.638091e+00 
5 0.030000 -6.300000e-02 -5.802113e-02 -7.520024e+00 
5 0.030000 -6.200000e-02 -6.121662e-02 -7.401897e+00 
5 0.030000 -6.100000e-02 -6.449941e-02 -7.283710e+00 
5 0.030000 -6.000000e-02 -6.786435e-02 -7.165465e+00 
5 0.030000 -5.900000e-02 -7.130554e-02 -7.047162e+00 
5 0.030000 -5.800000e-02 -7.481633e-02 -6.928803e+00 
5 0.030000 -5.700000e-02 -7.838927e-02 -6.810388e+00 
5 0.030000 -5.600000e-02 -8.201617e-02 -6.691919e+00 
5 0.030000 -5.500000e-02 -8.568802e-02 -6.573396e+00 
5 0.030000 -5.400000e-02 -8.939503e-02 -6.454820e+00 
5 0.030000 -5.300000e-02 -9.312666e-02 -6.336193e+00 
5 0.030000 -5.200000e-02 -9.687156e-02 -6.217515e+00 
5 0.030000 -5.100000e-02 -1.006177e-01 -6.098787e+00 
5 0.030000 -5.000000e-02 -1.043522e-01 -5.980010e+00 
5 0.030000 -4.900000e-02 -1.080615e-01 -5.861185e+00 
5 0.030000 -4.800000e-02 -1.117317e-01 -5.742313e+00 
5 0.030000 -4.700000e-02 -1.153477e-01 -5.623396e+00 
5 0.030000 -4.600000e-02 -1.188944e-01 -5.504433e+00 
5 0.030000 -4.500000e-02 -1.223559e-01 -5.385426e+00 
5 0.030000 -4.400000e-02 -1.257159e-01 -5.266376e+00 
5 0.030000 -4.300000e-02 -1.289577e-01 -5.147284e+00 
5 0.030000 -4.200000e-02 -1.320645e-01 -5.028150e+00 
5 0.030000 -4.100000e-02 -1.350189e-01 -4.908976e+00 
5 0.030000 -4.000000e-02 -1.378037e-01 -4.789763e+00 
5 0.030000 -3.900000e-02 -1.404016e-01 -4.670512e+00 
5 0.030000 -3.800000e-02 -1.427952e-01 -4.551223e+00 
5 0.030000 -3.700000e-02 -1.449676e-01 -4.431898e+00 
5 0.030000 -3.600000e-02 -1.469018e-01 -4.312537e+00 
5 0.030000 -3.500000e-02 -1.485814e-01 -4.193142e+00 
5 0.030000 -3.400000e-02 -1.499903e-01 -4.073713e+00 
5 0.030000 -3.300000e-02 -1.511132e-01 -3.954251e+00 
5 0.030000 -3.200000e-02 -1.519354e-01 -3.834758e+00 
5 0.030000 -3.100000e-02 -1.524430e-01 -3.715234e+00 
5 0.030000 -3.000000e-02 -1.526231e-01 -3.595681e+00 
5 0.030000 -2.900000e-02 -1.524637e-01 -3.476098e+00 
5 0.030000 -2.800000e-02 -1.519540e-01 -3.356488e+00 
5 0.030000 -2.700000e-02 -1.510844e-01 -3.236851e+00 
5 0.030000 -2.600000e-02 -1.498468e-01 -3.117188e+00 
5 0.030000 -2.500000e-02 -1.482343e-01 -2.997500e+00 
5 0.030000 -2.400000e-02 -1.462416e-01 -2.877788e+00 
5 0.030000 -2.300000e-02 -1.438648e-01 -2.758053e+00 
5 0.030000 -2.200000e-02 -1.411019e-01 -2.638296e+00 
5 0.030000 -2.100000e-02 -1.379524e-01 -2.518518e+00 
5 0.030000 -2.000000e-02 -1.344176e-01 -2.398720e+00 
5 0.030000 -1.900000e-02 -1.305004e-01 -2.278903e+00 
5 0.030000 -1.800000e-02 -1.262058e-01 -2.159067e+00 
5 0.030000 -1.700000e-02 -1.215404e-01 -2.039214e+00 
5 0.030000 -1.600000e-02 -1.165126e-01 -1.919345e+00 
5 0.030000 -1.500000e-02 -1.111327e-01 -1.799460e+00 
5 0.030000 -1.400000e-02 -1.054125e-01 -1.679561e+00 
5 0.030000 -1.300000e-02 -9.936595e-02 -1.559648e+00 
5 0.030000 -1.200000e-02 -9.300833e-02 -1.439724e+00 
5 0.030000 -1.100000e-02 -8.635668e-02 -1.319787e+00 
5 0.030000 -1.000000e-02 -7.942956e-02 -1.199840e+00 
5 0.030000 -9.000000e-03 -7.224701e-02 -1.079883e+00 
5 0.030000 -8.000000e-03 -6.483043e-02 -9.599181e-01 
5 0.030000 -7.000000e-03 -5.720246e-02 -8.399451e-01 
5 0.030000 -6.000000e-03 -4.938693e-02 -7.199654e-01 
5 0.030000 -5.000000e-03 -4.140866e-02 -5.999800e-01 
5 0.030000 -4.000000e-03 -3.329338e-02 -4.799898e-01 
5 0.030000 -3.000000e-03 -2.506756e-02 -3.599957e-01 
5 0.030000 -2.000000e-03 -1.675831e-02 -2.399987e-01 
5 0.030000 -1.000000e-03 -8.393164e-03 -1.199998e-01 
5 0.030000 -3.469447e-18 -2.913586e-17 -4.163336e-16 
5 0.030000 1.000000e-03 8.393164e-03 1.199998e-01 
5 0.030000 2.000000e-03 1.675831e-02 2.399987e-01 
5 0.030000 3.000000e-03 2.506756e-02 3.599957e-01 
5 0.030000 4.000000e-03 3.329338e-02 4.799898e-01 
5 0.030000 5.000000e-03 4.140866e-02 5.999800e-01 
5 0.030000 6.000000e-03 4.938693e-02 7.199654e-01 
5 0.030000 7.000000e-03 5.720246e-02 8.399451e-01 
5 0.030000 8.000000e-03 6.483043e-02 9.599181e-01 
5 0.030000 9.000000e-03 7.224701e-02 1.079883e+00 
5 0.030000 1.000000e-02 7.942956e-02 1.199840e+00 
5 0.030000 1.100000e-02 8.635668e-02 1.319787e+00 
5 0.030000 1.200000e-02 9.300833e-02 1.439724e+00 
5 0.030000 1.300000e-02 9.936595e-02 1.559648e+00 
5 0.030000 1.400000e-02 1.054125e-01 1.679561e+00 
5 0.030000 1.500000e-02 1.111327e-01 1.799460e+00 
5 0.030000 1.600000e-02 1.165126e-01 1.919345e+00 
5 0.030000 1.700000e-02 1.215404e-01 2.039214e+00 
5 0.030000 1.800000e-02 1.262058e-01 2.159067e+00 
5 0.030000 1.900000e-02 1.305004e-01 2.278903e+00 
5 0.030000 2.000000e-02 1.344176e-01 2.398720e+00 
5 0.030000 2.100000e-02 1.379524e-01 2.518518e+00 
5 0.030000 2.200000e-02 1.411019e-01 2.638296e+00 
5 0.030000 2.300000e-02 1.438648e-01 2.758053e+00 
5 0.030000 2.400000e-02 1.462416e-01 2.877788e+00 
5 0.030000 2.500000e-02 1.482343e-01 2.997500e+00 
5 0.030000 2.600000e-02 1.498468e-01 3.117188e+00 
5 0.030000 2.700000e-02 1.510844e-01 3.236851e+00 
5 0.030000 2.800000e-02 1.519540e-01 3.356488e+00 
5 0.030000 2.900000e-02 1.524637e-01 3.476098e+00 
5 0.030000 3.000000e-02 1.526231e-01 3.595681e+00 
5 0.030000 3.100000e-02 1.524430e-01 3.715234e+00 
5 0.030000 3.200000e-02 1.519354e-01 3.834758e+00 
5 0.030000 3.300000e-02 1.511132e-01 3.954251e+00 
5 0.030000 3.400000e-02 1.499903e-01 4.073713e+00 
5 0.030000 3.500000e-02 1.485814e-01 4.193142e+00 
5 0.030000 3.600000e-02 1.469018e-01 4.312537e+00 
5 0.030000 3.700000e-02 1.449676e-01 4.431898e+00 
5 0.030000 3.800000e-02 1.427952e-01 4.551223e+00 
5 0.030000 3.900000e-02 1.404016e-01 4.670512e+00 
5 0.030000 4.000000e-02 1.378037e-01 4.789763e+00 
5 0.030000 4.100000e-02 1.350189e-01 4.908976e+00 
5 0.030000 4.200000e-02 1.320645e-01 5.028150e+00 
5 0.030000 4.300000e-02 1.289577e-01 5.147284e+00 
5 0.030000 4.400000e-02 1.257159e-01 5.266376e+00 
5 0.030000 4.500000e-02 1.223559e-01 5.385426e+00 
5 0.030000 4.600000e-02 1.188944e-01 5.504433e+00 
5 0.030000 4.700000e-02 1.153477e-01 5.623396e+00 
5 0.030000 4.800000e-02 1.117317e-01 5.742313e+00 
5 0.030000 4.900000e-02 1.080615e-01 5.861185e+00 
5 0.030000 5.000000e-02 1.043522e-01 5.980010e+00 
5 0.030000 5.100000e-02 1.006177e-01 6.098787e+00 
5 0.030000 5.200000e-02 9.687156e-02 6.217515e+00 
5 0.030000 5.300000e-02 9.312666e-02 6.336193e+00 
5 0.030000 5.400000e-02 8.939503e-02 6.454820e+00 
5 0.030000 5.500000e-02 8.568802e-02 6.573396e+00 
5 0.030000 5.600000e-02 8.201617e-02 6.691919e+00 
5 0.030000 5.700000e-02 7.838927e-02 6.810388e+00 
5 0.030000 5.800000e-02 7.481633e-02 6.928803e+00 
5 0.030000 5.900000e-02 7.130554e-02 7.047162e+00 
5 0.030000 6.000000e-02 6.786435e-02 7.165465e+00 
5 0.030000 6.100000e-02 6.449941e-02 7.283710e+00 
5 0.030000 6.200000e-02 6.121662e-02 7.401897e+00 
5 0.030000 6.300000e-02 5.802113e-02 7.520024e+00 
5 0.030000 6.400000e-02 5.491739e-02 7.638091e+00 
5 0.030000 6.500000e-02 5.190914e-02 7.756097e+00 
5 0.030000 6.600000e-02 4.899946e-02 7.874041e+00 
5 0.030000 6.700000e-02 4.619078e-02 7.991921e+00 
5 0.030000 6.800000e-02 4.348493e-02 8.109737e+00 
5 0.030000 6.900000e-02 4.088318e-02 8.227489e+00 
5 0.030000 7.000000e-02 3.838624e-02 8.345174e+00 
5 0.030000 7.100000e-02 3.599433e-02 8.462792e+00 
5 0.030000 7.200000e-02 3.370721e-02 8.580342e+00 
5 0.030000 7.300000e-02 3.152419e-02 8.697824e+00 
5 0.030000 7.400000e-02 2.944421e-02 8.815235e+00 
5 0.030000 7.500000e-02 2.746583e-02 8.932576e+00 
5 0.030000 7.600000e-02 2.558731e-02 9.049845e+00 
5 0.030000 7.700000e-02 2.380662e-02 9.167041e+00 
5 0.030000 7.800000e-02 2.212146e-02 9.284164e+00 
5 0.030000 7.900000e-02 2.052933e-02 9.401212e+00 
5 0.030000 8.000000e-02 1.902752e-02 9.518185e+00 
5 0.030000 8.100000e-02 1.761320e-02 9.635081e+00 
5 0.030000 8.200000e-02 1.628337e-02 9.751900e+00 
5 0.030000 8.300000e-02 1.503495e-02 9.868640e+00 
5 0.030000 8.400000e-02 1.386478e-02 9.985301e+00 
5 0.030000 8.500000e-02 1.276964e-02 1.010188e+01 
5 0.030000 8.600000e-02 1.174629e-02 1.021838e+01 
5 0.030000 8.700000e-02 1.079146e-02 1.033480e+01 
5 0.030000 8.800000e-02 9.901895e-03 1.045113e+01 
5 0.030000 8.900000e-02 9.074376e-03 1.056738e+01 
5 0.030000 9.000000e-02 8.305708e-03 1.068355e+01 
5 0.030000 9.100000e-02 7.592752e-03 1.079963e+01 
5 0.030000 9.200000e-02 6.932431e-03 1.091562e+01 
5 0.030000 9.300000e-02 6.321744e-03 1.103153e+01 
5 0.030000 9.400000e-02 5.757769e-03 1.114734e+01 
5 0.030000 9.500000e-02 5.237677e-03 1.126307e+01 
5 0.030000 9.600000e-02 4.758733e-03 1.137870e+01 
5 0.030000 9.700000e-02 4.318302e-03 1.149425e+01 
5 0.030000 9.800000e-02 3.913857e-03 1.160970e+01 
5 0.030000 9.900000e-02 3.542973e-03 1.172506e+01 
